t[s],q_urdf_hip,q_urdf_knee,qd_urdf_hip,qd_urdf_knee,qdd_urdf_hip,qdd_urdf_knee,Tau_urdf_hip,Tau_urdf_knee
0.0,1.2,-2.35,0.0,0.0,6.448983790408647,75.56649508109956,-5.249641003464004,-0.01079653820049633
0.005,1.2001612245494184,-2.3481108371667117,0.032244909883683025,0.37783256665767284,5.706719012240001,-7.051924196823677,-5.5650723735089045,-0.08076392399562894
0.01,1.2004651170329348,-2.346397972417708,0.060778496703284196,0.34257294980069986,4.242572830827157,-5.3631669948432545,-5.882889895062959,-0.08324877737599636
0.015,1.2008750737981557,-2.3448191868360526,0.08199135304418748,0.31575711633111553,2.7324545574751937,-3.647103828909394,-6.206137968496124,-0.08579920474815633
0.02,1.2013533418903823,-2.343331578846404,0.09565361844532619,0.29752159792972177,1.1737600602261864,-1.8785249577158538,-6.535100562810853,-0.08839421012686698
0.025,1.2018609539494034,-2.341890933980981,0.10152241180420221,0.2881289730847203,0.882378869430795,-1.7985581504963193,-6.582370617124635,-0.08906341796519573
0.03,1.2023906254478904,-2.340495253072681,0.10593429969741466,0.2791361816600249,1.52170005379935,-2.9644933890492666,-6.427173747540169,-0.08835879451221035
0.035,1.2029583394181262,-2.339173684505212,0.11354279404716296,0.26431371349380584,1.6108695881871427,-3.4133049870225705,-6.3932352406692,-0.08849795956807154
0.04,1.2035663251012534,-2.337937448571888,0.1215971366254371,0.24724718666481493,1.2523979325510481,-3.288562380271344,-6.456037916913101,-0.08931560320420166
0.045,1.2042056207087886,-2.336783426711587,0.12785912150703213,0.23080437206016313,0.5249933459219847,-2.6938192463612154,-6.596846629415259,-0.0906789199171241
0.05,1.2048580411291245,-2.33569675035056,0.13048408406720685,0.2173352722053903,-0.509488170692066,-1.7112775449813853,-6.801091648001937,-0.09248437463725781
0.055,1.2054977243275902,-2.334652855951339,0.12793663969311414,0.2087788798442466,-1.8019320491994222,-0.407280242752563,-7.057421386265764,-0.0946516764917032
0.06,1.2060923592106902,-2.333619143586864,0.1189269766200312,0.2067424728949646,-3.3129791413512066,1.1725548273955155,-7.357011425491942,-0.09711235277034426
0.065,1.2066041696048504,-2.332556117386108,0.10236207883201591,0.2126052401512163,-5.0013508465776795,2.964576419751779,-7.691158363130787,-0.09981279813711486
0.07,1.2069909462214718,-2.3314189768155495,0.07735532332427855,0.22742811411166938,-6.841404841352869,4.98715369056174,-8.05478764249217,-0.10267616239641271
0.075,1.2072066877151193,-2.330157157455589,0.04314829872948625,0.25236387199216037,-8.841841033680566,9.654507274876778,-8.444436877777665,-0.10372113646690637
0.08,1.2072013831851256,-2.32865397542084,-0.001060905998750708,0.3006364069497539,-10.952425055130334,12.575110491425221,-8.858637948316046,-0.10645631759650782
0.085,1.2069222680357161,-2.326836415631103,-0.05582302988189778,0.3635119579474184,-13.159129193706804,14.288282480317548,-9.2963084148317,-0.11044039775303581
0.09,1.2063141746688604,-2.3246616488214515,-0.1216186733711481,0.43495336193029344,-14.690926379906841,15.054578636636506,-9.600000000000001,-0.11357530381106919
0.095,1.2053388081492635,-2.322110517618317,-0.19507330391934824,0.5102262406268875,-14.801525745403751,22.153789427549555,-9.600000000000001,-0.10796816772345391
0.1,1.2039934034923874,-2.3190055415869995,-0.26908093137524697,0.6209952062635108,-14.78825584001288,17.811818484352898,-9.600000000000001,-0.11153358541297806
0.105,1.202278292447751,-2.3154552701075315,-0.34302220892724555,0.710054295893562,-14.731089847872227,18.809267838657888,-9.58837110599715,-0.11066748820122355
0.11,1.2001949041897393,-2.3114347669312565,-0.4166776516023605,0.8041006352550317,-14.758291179259459,19.165466345172717,-9.600000000000001,-0.11058556809816918
0.115,1.1977425586617527,-2.3069351270853447,-0.4904691055973329,0.8999279691823568,-14.703969844144467,19.294852458832338,-9.600000000000001,-0.11053758510770227
0.12,1.1949226138977471,-2.3019531159162883,-0.5639889528011314,0.9964022338113102,-14.627492685024663,19.357102383902998,-9.600000000000001,-0.11053630122225759
0.125,1.1917369818271315,-2.2964871771740345,-0.6371264141231266,1.0931877484507482,-14.530561395553832,19.34878794515282,-9.600000000000001,-0.11058534581383643
0.13,1.1881880857324307,-2.2905375187180135,-0.7097792189401444,1.1899316912041622,-14.415058050078642,19.28230176527302,-9.600000000000001,-0.11067560379874951
0.135,1.1842788131974216,-2.2841058027013332,-0.7818545070018272,1.2863432033360505,-14.282706081624838,19.149812150735443,-9.600000000000001,-0.11081414032506264
0.14,1.180012473021308,-2.2771953413633046,-0.8532680352227281,1.3820922676057426,-14.13525686895673,18.954486141264624,-9.600000000000001,-0.11099916639649152
0.145,1.1753927514342541,-2.2698110178533706,-0.9239443174107633,1.4768647019867636,-13.974359526891249,18.695603918331756,-9.600000000000001,-0.11123196514517233
0.15,1.17042367086952,-2.2619593042265644,-0.9938161129468516,1.5703427253612274,-13.801573572914549,18.37447394749904,-9.600000000000001,-0.11151214624357338
0.155,1.1651095509755298,-2.253648228731756,-1.0628239787980294,1.662215098961689,-13.619115934751562,18.056062906924183,-9.600000000000001,-0.11178824139101252
0.16,1.1594549531926637,-2.244885751642624,-1.1309195565732135,1.7524954178263439,-13.442212761084647,18.823621150868064,-9.600000000000001,-0.11119286624597918
0.165,1.1534643000992661,-2.2356526839774142,-1.1981306186795109,1.846613533041974,-13.202940588600995,13.99028945269123,-9.600000000000001,-0.11508479817511372
0.17,1.1471435734997688,-2.2260698591272443,-1.2641453198994748,1.9165649700339769,-12.966997908060648,13.703316265389958,-9.600000000000001,-0.11533353166783188
0.175,1.1404986719610384,-2.2161444514158135,-1.3289803077461033,1.9850815422862034,-12.723922460080757,13.476655165374211,-9.600000000000001,-0.11552549158067113
0.18,1.1335356723690257,-2.205882127358737,-1.392599918402534,2.052464811415376,-12.475712134469177,13.24239594381254,-9.600000000000001,-0.11571598887851361
0.185,1.126260779981569,-2.195288743428506,-1.4549784774913586,2.1186767860461786,-12.224526150626843,13.007871079526353,-9.600000000000001,-0.11590025646796569
0.19,1.1186802744479831,-2.18437016274635,-1.516101106717143,2.1837161364312077,-11.972328083337288,12.769049524594948,-9.600000000000001,-0.11608268983990218
0.195,1.1108004607196744,-2.1731323558508704,-1.5759627456617589,2.2475613790959597,-11.720970660008561,12.527618307993691,-9.600000000000001,-0.11626317564867858
0.2,1.1026276227319565,-2.161581358522125,-1.6345675975435925,2.3101994657491365,-11.472175046911161,12.285383887933278,-9.600000000000001,-0.1164415634490925
0.205,1.0941679803748972,-2.1497232266201545,-1.691928471411885,2.3716263803940345,-11.22752859282582,12.044154248948587,-9.600000000000001,-0.11661775863869654
0.21,1.0854276498096,-2.137563990885351,-1.7480661130594306,2.4318471469606355,-10.988643034613915,11.81833566361604,-9.600000000000001,-0.1167816621684098
0.215,1.0764126031747818,-2.125109296781422,-1.8030093269636311,2.490938820785906,-10.7554465610433,11.486757294509175,-9.600000000000001,-0.1170314936414102
0.22,1.067128670382082,-2.1123674337687577,-1.8567865585399885,2.5483726025328366,-10.530295710050723,11.239093571571118,-9.600000000000001,-0.11721707025857786
0.225,1.0575814802025891,-2.0993445934398407,-1.9094380358985619,2.604568065783361,-10.313275815597308,10.942511077638358,-9.600000000000001,-0.11744585471969335
0.23,1.047776458133511,-2.0860481903572774,-1.9610044138156524,2.659280616512643,-10.106458349956483,10.737777254423918,-9.600000000000001,-0.1176069382329765
0.235,1.0377187746113419,-2.072483342865042,-2.0115367044338015,2.712969498447033,-9.909583356051598,10.47466235076584,-9.600000000000001,-0.1178217571917139
0.24,1.0274133515108104,-2.058656628835204,-2.061084620106311,2.765342805967672,-9.723485307325745,10.217096304633287,-9.600000000000001,-0.11804079316820387
0.245,1.0168648412830363,-2.0445744874182465,-2.109702045554809,2.8164282833915233,-9.548590132118306,9.958274789353112,-9.600000000000001,-0.1182709459912134
0.25,1.006077616307323,-2.030243389151332,-2.1574449951426673,2.8662196533829243,-9.385234239887495,9.69743910013969,-9.600000000000001,-0.11851427839683377
0.255,0.9950557604809194,-2.015669854925922,-2.2043711652807345,2.9147068450819713,-9.2336485353419,9.433623364054029,-9.600000000000001,-0.11877299239991622
0.26,0.9838030634464012,-2.0008604801346004,-2.2505394069036373,2.961874958264323,-9.093964274277823,9.165666755847695,-9.600000000000001,-0.1190494096579761
0.265,0.9723230173102749,-1.9858219636917005,-2.296009227225265,3.007703288579958,-8.966217292245119,8.892131847232974,-9.600000000000001,-0.11934602576820966
0.27,0.9606188157470869,-1.9705611439690094,-2.340840312637607,3.0521639445382283,-8.850371021443834,8.61279091362428,-9.600000000000001,-0.11966431884573625
0.275,0.9486933549136162,-1.9550850044888448,-2.3850921666941276,3.0952278960329047,-8.746532818997139,8.34377158906807,-9.600000000000001,-0.11999273628114634
0.28,0.9365492307649402,-1.9394002707329023,-2.4288248297351918,3.1369467511884928,-8.654254368672582,8.049898641922539,-9.600000000000001,-0.12036044650918733
0.285,0.9241887502623419,-1.9235142895236055,-2.472096100519662,3.1771962418593693,-8.573437898665361,7.753224885264842,-9.600000000000001,-0.12075101519326266
0.29,0.9116139338175986,-1.9074344777033607,-2.5149632889486573,3.2159623640489614,-8.50377852428096,7.4482820312330205,-9.600000000000001,-0.12116981992145733
0.295,0.8988265229150953,-1.8911684588417934,-2.5574821805006485,3.253203772313476,-8.444861595068915,7.1282281207916185,-9.600000000000001,-0.12162321543004694
0.3,0.8858279904780821,-1.8747242342847825,-2.5997064874026448,3.2888449114021623,-8.396236300017108,6.79174575724619,-9.600000000000001,-0.12211303807514991
0.305,0.872619552138944,-1.858110216089338,-2.6416876678276155,3.3228036390889164,-8.357389984290648,6.437285057382724,-9.600000000000001,-0.12264116775175893
0.31,0.8592021790555666,-1.8413352657706386,-2.683474616675475,3.354990063739853,-8.327648129730278,6.055663085378001,-9.600000000000001,-0.1232153518797739
0.315,0.8455766147742849,-1.8244089238754937,-2.7251128562563354,3.3852683790289833,-8.306301758459313,5.645110959378599,-9.600000000000001,-0.12383724314912312
0.32,0.831743392954324,-1.8073414542043311,-2.766644363992182,3.4134939342325215,-8.292501307540533,5.1988173105894475,-9.600000000000001,-0.12451223755559347
0.325,0.8177028586068662,-1.7901440140954246,-2.808106869491544,3.439488021781325,-8.285256422249631,4.7085327812742435,-9.600000000000001,-0.12524655791747732
0.33,0.8034551928539133,-1.7728288606588505,-2.8495331505905814,3.463030687314809,-8.283435188155863,4.1660550911608425,-9.600000000000001,-0.12604601861579945
0.335,0.7890004412261402,-1.7554095558334926,-2.890950325554619,3.4838609650715626,-8.285742347283076,3.562266673603517,-9.600000000000001,-0.12691672094618694
0.34,0.7743385460443379,-1.7379011943262008,-2.932379036360455,3.5016723014583313,-8.290673169045249,2.885018474654089,-9.600000000000001,-0.127866638987361
0.345,0.7594693840376715,-1.7203207073381546,-2.973832401333283,3.5160973976092693,-8.296507504271403,2.1212017917603134,-9.600000000000001,-0.12890388447288118
0.35,0.7443928093474026,-1.7026871902824303,-3.0153149380537787,3.5267034111448408,-8.301244649215278,1.2533923041481785,-9.600000000000001,-0.1300392339261602
0.355,0.7291087035444772,-1.6850223383920553,-3.056821160585079,3.532970378075008,-8.302597657547267,0.2624209149192893,-9.600000000000001,-0.1312839634374834
0.36,0.7136170328031783,-1.6673509259474513,-3.0983341482597817,3.5342824889207907,-8.297988673983127,-0.8716994078102971,-9.600000000000001,-0.13264898153979723
0.365,0.6979179123475029,-1.6497013059522316,-3.13982409113508,3.5299239990439064,-8.2844499317589,-2.176434615959465,-9.600000000000001,-0.13414989838286068
0.37,0.6820116806453278,-1.6321060967820458,-3.1812463404350253,3.519041834037189,-8.25878735500305,-3.673085650692201,-9.600000000000001,-0.13579615862968444
0.375,0.6658989792603034,-1.6146027147080706,-3.2225402770048914,3.5006764147950302,-8.21582619873584,-5.500637091964563,-9.600000000000001,-0.1376875664692388
0.38,0.6495808822204934,-1.5972368485125836,-3.2636194079620022,3.47317323909741,-8.153183694828385,-7.55218225373028,-9.600000000000001,-0.13972953620113532
0.385,0.6330589555875643,-1.5800597868202912,-3.304385326585805,3.435412338458481,-8.065408728512239,-9.962382192023597,-9.600000000000001,-0.14201485372546582
0.39,0.6163353937346729,-1.5631317846256396,-3.3447123705782817,3.385600438930326,-7.947880327175881,-12.785803127518193,-9.600000000000001,-0.1445713803979052
0.395,0.5994131348707945,-1.5465234274483404,-3.3844517727756944,3.321671435459828,-7.795893051704525,-16.099469300313785,-9.600000000000001,-0.1474423638407167
0.4,0.5822959786767219,-1.5303175569394867,-3.4234312388145147,3.2411741017707327,-7.605210335591892,-19.993627622779968,-9.600000000000001,-0.1506793234850834
0.405,0.5649886922192575,-1.5146115270544909,-3.4614572914928687,3.141205976999169,-7.3721541687816625,-24.61275334038737,-9.600000000000001,-0.15437424049545165
0.41,0.5474971019015078,-1.4995208159346456,-3.4983180635499345,3.018142223969075,-7.09697163173405,-30.01057522970632,-9.600000000000001,-0.15854792375310134
0.415,0.5298280872859138,-1.4851803691261076,-3.5338029231188113,2.8680893617075998,-6.782091825745283,-36.36620774079029,-9.600000000000001,-0.16331926527427798
0.42,0.5119895203667859,-1.4717490774415873,-3.567713383825578,2.6862583369040753,-6.4371208492789265,-43.83324735058295,-9.600000000000001,-0.168790705475259
0.425,0.49399002541791964,-1.459413616872352,-3.599898989773252,2.4670921138470696,-6.081683825806408,-52.587711126642716,-9.600000000000001,-0.17508923523673028
0.43,0.4758384883646021,-1.4483928490150086,-3.6303074106635176,2.204153571468659,-5.751574002431994,-62.773367063289015,-9.600000000000001,-0.18232993501964498
0.435,0.4575431619525404,-1.4389414152711626,-3.6590652824123353,1.8902867487692074,-5.504839458205424,-74.55209915774185,-9.600000000000001,-0.1906624987175036
0.44,0.43911021454601423,-1.4313537839472636,-3.686589481305234,1.5175262647797902,-5.432690380310305,-88.03913271747206,-9.600000000000001,-0.20023168571588446
0.445,0.4205414498733435,-1.4259671308870288,-3.713752934534143,1.0773306120469741,-5.67230858224832,-103.26942028849612,-9.600000000000001,-0.21116361531471367
0.45,0.40183087748172297,-1.423162213284659,-3.742114478324107,0.5609835204739219,-6.422070353487015,-120.17415938514978,-9.600000000000001,-0.2235603806714935
0.455,0.38295975333019316,-1.4233616496222021,-3.7742248303059553,-0.03988726750862015,-7.963610327646734,-138.23854428259642,-9.600000000000001,-0.2372471636880446
0.46,0.36388953892404197,-1.4270170495247398,-3.8140428812302414,-0.7310799805075473,-10.656415497573448,-157.30659008772022,-9.600000000000001,-0.252384201474393
0.465,0.3445529141403802,-1.4346051141390403,-3.8673249567323498,-1.5176129228601072,-14.985260387066319,-176.6231704095719,-9.600000000000001,-0.26873741994865197
0.47,0.3248416578655122,-1.4466087579731868,-3.942251254973599,-2.400728766829286,-21.55069712583804,-195.50849118128235,-9.600000000000001,-0.2861569652328342
0.475,0.30459163419236573,-1.4635001140455917,-4.050004734629298,-3.378271214480984,-31.094349119245294,-213.44860825018975,-9.600000000000001,-0.30461430422076247
0.48,0.2835642518362677,-1.4857276852827417,-4.2054764712196,-4.4455142474300064,-44.544584497154915,-230.4783989515945,-9.600000000000001,-0.32446612978305234
0.485,0.2614232549328951,-1.5137172164550892,-4.428199380674521,-5.597906234469484,-63.12817235331363,-248.68193496263223,-9.600000000000001,-0.34762382433404254
0.49,0.2377040538124889,-1.5479237959718768,-4.743840224081238,-6.841315903357515,-88.95589824955073,-243.12935992763448,-9.600000000000001,-0.35508557028651927
0.495,0.21176095536168263,-1.588208609321493,-5.188619690161257,-8.056962669923266,-120.53874983639719,-405.92695997585633,-9.600000000000001,-0.494777055409128
0.5,0.1828043883381903,-1.6386415923493929,-5.791313404698469,-10.086596605579935,914.6976716734248,-1143.998674839007,9.56740259645026,-0.2911446804444304
0.505,0.176715262701462,-1.7176745456548659,-1.217825127345658,-15.806590661094585,718.7260762138064,895.4391193381668,8.683716916716257,1.106230448343867
0.51,0.18859428818797938,-1.7743215230039509,2.3758050973034743,-11.329395469817007,429.7925544274784,680.0298547745567,4.898815057593456,0.720571378764323
0.515,0.2112181270503038,-1.8139677547859736,4.524767772464886,-7.929246356404546,192.459963797242,413.7014727284836,2.0898417804156284,0.367024650930199
0.52,0.23865346489304173,-1.8432714499523375,5.48706756854759,-5.8607390332727745,20.900069190010484,259.00577625285297,0.2236986928880702,0.16387064999937173
0.525,0.2666113046077996,-1.8661000006848016,5.591567942951565,-4.565710146492816,-82.4536471227883,182.03502897492697,-0.838505865145803,0.06980210817833105
0.53,0.2925078034176858,-1.8843776756152997,5.179299761977238,-3.65553498609959,-133.47266597463118,144.94103729568937,-1.3336306819733044,0.035612840288971326
0.535,0.3150674858922564,-1.8990318245568292,4.511936494914129,-2.9308297883059033,-150.04426904819945,125.05141090281316,-1.4751307796476931,0.02836553168389608
0.54,0.3338760619421789,-1.9105596882074265,3.761715209984497,-2.3055727301194686,-146.39961899440982,110.9239627914999,-1.4193394071260208,0.02995066452870908
0.545,0.34902464777994613,-1.9193144528029396,3.0297171675534518,-1.7509529191025885,-132.30728312979548,97.6968653446207,-1.2678634550939132,0.032050802323153944
0.55,0.3608655517541042,-1.9256267958010522,2.3681807948316145,-1.2624685996225244,-113.8468470195196,83.90553225189677,-1.0808245966883987,0.031808911206719165
0.555,0.3698602847197307,-1.9298415005396024,1.7989465931253017,-0.8429409477100265,-94.47833958368534,69.58374545563478,-0.8905852774183585,0.02895388261246301
0.56,0.3764930593199868,-1.9323166116908645,1.3265549200512092,-0.495022230252418,-75.97389322419926,55.25020668367981,-0.7125543756974076,0.02417431828360135
0.565,0.3812264866775993,-1.9334104677213328,0.9466854715225022,-0.21877120609367234,-59.10398019312791,41.44013883261201,-0.5526117357110252,0.018327086303426568
0.57,0.38448231458850163,-1.9334683203216518,0.6511655821804723,-0.011570520063806822,-44.09242587669076,28.537727032606185,-0.4117498491552857,0.01212297633038218
0.575,0.3866358318864322,-1.9328127297799482,0.4307034595861084,0.1311181083407371,-30.89345716331892,16.753657160754855,-0.28875102985668777,0.006049085299887311
0.58,0.38801701276978445,-1.9317382978358604,0.27623617667045697,0.21488638881757832,-19.347389629059133,6.1591277425593844,-0.181610909711606,0.0003898753991829746
0.585,0.38891450891130797,-1.9305098877179148,0.17949922830469714,0.24568202358912336,-9.260937122957781,-3.2679470015082317,-0.08822493867000189,-0.004722424694187591
0.59,0.3895804816111097,-1.9293631762882475,0.13319453996034963,0.22934228593343925,-0.44445139618345664,-11.60290587044574,-0.006674444871806223,-0.009257922649101831
0.595,0.3902353430022416,-1.9285065375126518,0.130972278226385,0.1713277551191611,7.273460014853715,-18.945510741844604,0.06468636156845997,-0.01324955897985435
0.6,0.391072040861779,-1.9281235365075051,0.16733957190747836,0.07660020102934655,14.042087910393239,-25.401547185016117,0.12723097132999941,-0.016765103967613233
0.605,0.3922597908804143,-1.9283755741789528,0.23755000372706608,-0.05040753428951179,19.98924083130562,-31.072254028761915,0.18209201852773277,-0.019888641850936147
0.61,0.3939472718756448,-1.929404418193565,0.3374961990461002,-0.20576880292242916,25.22327756008287,-36.04894116588293,0.23019769823232003,-0.022708935867634745
0.615,0.3962653347610624,-1.9313344857255952,0.4636125770835142,-0.38601350640604976,29.835253220979798,-40.41073688292659,0.2723033166831978,-0.025312411965041363
